step	energy		pressure
1	-2.36554070	5.12739095
2	-2.36554070	5.12739095
3	-2.36516591	5.12762100
4	-2.35695953	5.14177107
5	-2.34041240	5.17152455
6	-2.32938098	5.19136019
7	-2.32150140	5.20552852
8	-2.31419909	5.22196388
9	-2.30626825	5.24314212
10	-2.30345436	5.24221988
11	-2.30041163	5.24402899
12	-2.29713429	5.24796611
13	-2.29404096	5.25250082
14	-2.29148213	5.25444189
15	-2.28886752	5.25285599
16	-2.28610574	5.25307375
17	-2.28204710	5.25824366
18	-2.27696206	5.26603053
19	-2.27371750	5.26473331
20	-2.27075814	5.26373577
21	-2.26804663	5.26316887
22	-2.26545626	5.26381094
23	-2.26308075	5.26504667
24	-2.26071425	5.26508178
25	-2.25810078	5.26653616
26	-2.25517803	5.26877626
27	-2.25331442	5.26665874
28	-2.25161456	5.26151254
29	-2.24894546	5.25700411
30	-2.24527476	5.24982359
31	-2.24139617	5.24218994
32	-2.23768546	5.23519946
33	-2.23398673	5.22936624
34	-2.23002129	5.22586148
35	-2.22584143	5.22151970
36	-2.22187822	5.21777491
37	-2.21744569	5.21566158
38	-2.21083786	5.21557229
39	-2.20366387	5.21779026
40	-2.19658158	5.22357604
41	-2.18913204	5.22904756
42	-2.18248065	5.23630071
43	-2.17516776	5.24162710
44	-2.16897540	5.24683845
45	-2.16247749	5.25635929
46	-2.15537517	5.26584544
47	-2.14992024	5.26917566
48	-2.14468548	5.26988385
49	-2.13967982	5.26789658
50	-2.13440481	5.26786881
51	-2.12846615	5.27186756
52	-2.12159817	5.27768875
53	-2.11592767	5.27968921
54	-2.11000560	5.28344623
55	-2.10347522	5.28854401
56	-2.09720901	5.29476450
57	-2.09087622	5.30096490
58	-2.08406722	5.30776066
59	-2.07721304	5.31551763
60	-2.07015366	5.32352181
61	-2.06270784	5.33445103
62	-2.05575499	5.34271022
63	-2.04915268	5.35126287
64	-2.04272669	5.35933974
65	-2.03614226	5.36773388
66	-2.02993544	5.37634841
67	-2.02313035	5.38588285
68	-2.01571457	5.39744514
69	-2.00805498	5.40964049
70	-2.00100137	5.41935662
71	-1.99398852	5.42887895
72	-1.98693415	5.43736851
73	-1.97969218	5.44486889
74	-1.97197729	5.45467075
75	-1.96438464	5.46495372
76	-1.95628549	5.47690275
77	-1.94713299	5.49011791
78	-1.93827064	5.50307634
79	-1.92979440	5.51527032
80	-1.92154082	5.52681398
81	-1.91385544	5.53775860
82	-1.90691923	5.54629380
83	-1.90024208	5.55375153
84	-1.89285954	5.56340651
85	-1.88528218	5.57309037
86	-1.87706950	5.58502541
87	-1.86855583	5.59725158
88	-1.85941133	5.61063676
89	-1.85120215	5.62078079
90	-1.84331073	5.63021964
91	-1.83572465	5.63962780
92	-1.82810847	5.64819363
93	-1.82163792	5.65447802
94	-1.81580334	5.65780955
95	-1.81101080	5.65765322
96	-1.80585837	5.65759290
97	-1.79962614	5.66200058
98	-1.79342689	5.66567700
99	-1.78715147	5.67027417
100	-1.78093209	5.67479266
101	-1.77475109	5.68031413
102	-1.76897180	5.68459096
103	-1.76381090	5.68905422
104	-1.75800692	5.69463643
105	-1.75143589	5.70322337
106	-1.74475400	5.71078457
107	-1.73779744	5.71993014
108	-1.73153287	5.72760642
109	-1.72577023	5.73414471
110	-1.72040024	5.73760738
111	-1.71542455	5.74026516
112	-1.71013355	5.74295938
113	-1.70490370	5.74518347
114	-1.69953333	5.74941659
115	-1.69410483	5.75380991
116	-1.68864852	5.75867388
117	-1.68365094	5.76215939
118	-1.67961281	5.76331201
119	-1.67591977	5.76287494
120	-1.67246957	5.76191165
121	-1.66896752	5.76163034
122	-1.66548429	5.76153463
123	-1.66172753	5.76221984
124	-1.65844261	5.76318385
125	-1.65554301	5.76254174
126	-1.65243011	5.76339862
127	-1.64899976	5.76551534
128	-1.64529105	5.76825724
129	-1.64169237	5.77047882
130	-1.63819063	5.77297960
131	-1.63516778	5.77462134
132	-1.63253659	5.77542889
133	-1.62998914	5.77586292
134	-1.62738103	5.77540662
135	-1.62460189	5.77500689
136	-1.62209101	5.77499864
137	-1.61901641	5.77615753
138	-1.61641515	5.77633237
139	-1.61378742	5.77621060
140	-1.61118109	5.77613241
141	-1.60888596	5.77599907
142	-1.60647630	5.77659078
143	-1.60347102	5.77745277
144	-1.60015854	5.77783559
145	-1.59681124	5.77906301
146	-1.59330252	5.78099150
147	-1.58985004	5.78301943
148	-1.58658632	5.78436445
149	-1.58319416	5.78542829
150	-1.58033064	5.78464686
151	-1.57748258	5.78534486
152	-1.57544662	5.78455956
153	-1.57396168	5.78286733
154	-1.57223837	5.78341811
155	-1.57003617	5.78736382
156	-1.56815620	5.79050450
157	-1.56634972	5.79353887
158	-1.56409877	5.79749340
159	-1.56175305	5.80119431
160	-1.55940385	5.80552942
161	-1.55770290	5.80855573
162	-1.55618932	5.81051594
163	-1.55512971	5.81192003
164	-1.55393482	5.81270810
165	-1.55283184	5.81217654
166	-1.55136275	5.81254509
167	-1.55002979	5.81269355
168	-1.54838754	5.81308043
169	-1.54719241	5.81157839
170	-1.54652706	5.80801300
171	-1.54567842	5.80447141
172	-1.54448255	5.80108373
173	-1.54292587	5.79964655
174	-1.54149389	5.79825657
175	-1.54058659	5.79604546
176	-1.53964901	5.79377598
177	-1.53886778	5.79190628
178	-1.53796089	5.79009067
179	-1.53695446	5.78817281
180	-1.53586335	5.78590226
181	-1.53500631	5.78290752
182	-1.53400856	5.77991302
183	-1.53236259	5.77810382
184	-1.53119491	5.77610157
185	-1.52951114	5.77674053
186	-1.52760681	5.77739918
187	-1.52570118	5.77862899
188	-1.52424727	5.77921255
189	-1.52280282	5.77915163
190	-1.52153349	5.77853441
191	-1.52066489	5.77637863
192	-1.51989827	5.77355434
193	-1.51919027	5.77110480
194	-1.51820209	5.76969029
195	-1.51713212	5.76877695
196	-1.51625430	5.76728979
197	-1.51573869	5.76656785
198	-1.51494142	5.76742164
199	-1.51415774	5.76750108
200	-1.51372610	5.76758798
201	-1.51326705	5.76672750
202	-1.51215166	5.76753560
203	-1.51038139	5.77107089
204	-1.50924879	5.77279198
205	-1.50788243	5.77455749
206	-1.50669275	5.77496907
207	-1.50563612	5.77609691
208	-1.50449712	5.77744250
209	-1.50297892	5.78005454
210	-1.50128407	5.78464314
211	-1.50002883	5.78812139
212	-1.49880974	5.79140069
213	-1.49746742	5.79535368
214	-1.49585808	5.79925688
215	-1.49456520	5.80176596
216	-1.49317099	5.80454550
217	-1.49172505	5.80737073
218	-1.49024795	5.81133307
219	-1.48886909	5.81501823
220	-1.48770765	5.81734362
221	-1.48626761	5.81991517
222	-1.48479950	5.82262152
223	-1.48353881	5.82543538
224	-1.48250246	5.82717837
225	-1.48166387	5.82813073
226	-1.48105461	5.82840139
227	-1.48019454	5.82920463
228	-1.47883065	5.83285127
229	-1.47755262	5.83642695
230	-1.47645502	5.83869258
231	-1.47562577	5.84008421
232	-1.47431213	5.84233218
233	-1.47288169	5.84462406
234	-1.47165795	5.84690539
235	-1.47057961	5.84803614
236	-1.46908394	5.84960215
237	-1.46752040	5.85186054
238	-1.46630539	5.85271877
239	-1.46507106	5.85432508
240	-1.46368222	5.85656504
241	-1.46197495	5.86062101
242	-1.46007275	5.86537075
243	-1.45798738	5.87019914
244	-1.45600128	5.87500272
245	-1.45427629	5.87963986
246	-1.45262816	5.88382697
247	-1.45115312	5.88776405
248	-1.44956751	5.89170873
249	-1.44773757	5.89600861
250	-1.44630425	5.89923683
251	-1.44522216	5.90205925
252	-1.44433747	5.90448669
253	-1.44347223	5.90709579
254	-1.44247928	5.91053660
255	-1.44164239	5.91320539
256	-1.44103933	5.91496547
257	-1.44009712	5.91763269
258	-1.43896912	5.92052654
259	-1.43774884	5.92365375
260	-1.43686998	5.92575365
261	-1.43624019	5.92643761
262	-1.43579054	5.92724546
263	-1.43493880	5.92875274
264	-1.43416534	5.93134166
265	-1.43355260	5.93303191
266	-1.43286409	5.93435360
267	-1.43199857	5.93610417
268	-1.43125261	5.93804891
269	-1.43053918	5.93973682
270	-1.42964059	5.94209538
271	-1.42887999	5.94362126
272	-1.42812472	5.94529635
273	-1.42737612	5.94734657
274	-1.42683427	5.94871610
275	-1.42603047	5.95052851
276	-1.42543237	5.95181383
277	-1.42493018	5.95296717
278	-1.42445975	5.95429993
279	-1.42426901	5.95566305
280	-1.42406707	5.95666978
281	-1.42402318	5.95795302
282	-1.42385009	5.95929152
283	-1.42377232	5.96000436
284	-1.42338586	5.96129214
285	-1.42249564	5.96470873
286	-1.42192158	5.96752909
287	-1.42182069	5.96874446
288	-1.42174850	5.97000585
289	-1.42165169	5.97126980
290	-1.42155423	5.97324159
291	-1.42175568	5.97426687
292	-1.42182570	5.97489390
293	-1.42173667	5.97566530
294	-1.42137500	5.97664171
295	-1.42081713	5.97801788
296	-1.42049186	5.97869740
297	-1.42022896	5.97894944
298	-1.42020816	5.97754250
299	-1.42034495	5.97569098
300	-1.42041154	5.97330087
301	-1.42037091	5.97089676
302	-1.41993858	5.96948498
303	-1.41949016	5.96817644
304	-1.41913173	5.96636849
305	-1.41892136	5.96389328
306	-1.41870611	5.96152748
307	-1.41873023	5.95893913
308	-1.41899225	5.95643691
309	-1.41907136	5.95545100
310	-1.41900347	5.95532138
311	-1.41886619	5.95536395
312	-1.41894265	5.95458388
313	-1.41895548	5.95428945
314	-1.41865218	5.95490911
315	-1.41846269	5.95542135
316	-1.41834176	5.95608431
317	-1.41795801	5.95737596
318	-1.41761539	5.95878066
319	-1.41729786	5.96020620
320	-1.41713181	5.96094898
321	-1.41709287	5.96109547
322	-1.41694186	5.96121158
323	-1.41667190	5.96133745
324	-1.41682360	5.96075890
325	-1.41704244	5.96088045
326	-1.41727083	5.96025571
327	-1.41753617	5.95917205
328	-1.41779589	5.95804103
329	-1.41782281	5.95756880
330	-1.41790843	5.95756159
331	-1.41803062	5.95780050
332	-1.41820582	5.95823867
333	-1.41796931	5.96030746
334	-1.41732305	5.96258906
335	-1.41690830	5.96433749
336	-1.41686175	5.96507288
337	-1.41678186	5.96542205
338	-1.41650909	5.96599846
339	-1.41627318	5.96717140
340	-1.41606363	5.96860524
341	-1.41591641	5.96956279
342	-1.41575944	5.97042589
343	-1.41533911	5.97152511
344	-1.41521724	5.97209750
345	-1.41529413	5.97183233
346	-1.41539627	5.97143843
347	-1.41527467	5.97108795
348	-1.41525564	5.97068949
349	-1.41493716	5.97076626
350	-1.41481536	5.97053658
351	-1.41465365	5.97023022
352	-1.41440626	5.97011994
353	-1.41417359	5.96990838
354	-1.41399308	5.96954284
355	-1.41356812	5.96972435
356	-1.41322213	5.96953346
357	-1.41278262	5.96965933
358	-1.41239523	5.96934804
359	-1.41208759	5.96812293
360	-1.41170216	5.96714745
361	-1.41134922	5.96659404
362	-1.41110066	5.96581436
363	-1.41082319	5.96537146
364	-1.41043131	5.96507667
365	-1.41003568	5.96478179
366	-1.40971982	5.96430971
367	-1.40945127	5.96385918
368	-1.40901901	5.96429760
369	-1.40867723	5.96498444
370	-1.40829613	5.96598282
371	-1.40800342	5.96666829
372	-1.40777866	5.96708836
373	-1.40760587	5.96710759
374	-1.40734488	5.96768291
375	-1.40713109	5.96827124
376	-1.40670986	5.96915006
377	-1.40626142	5.97032681
378	-1.40582503	5.97096516
379	-1.40536236	5.97088128
380	-1.40516942	5.97008321
381	-1.40529217	5.96881106
382	-1.40518020	5.96810649
383	-1.40507038	5.96771199
384	-1.40495928	5.96740568
385	-1.40478051	5.96645916
386	-1.40458970	5.96593413
387	-1.40446298	5.96462149
388	-1.40417040	5.96347410
389	-1.40392706	5.96246022
390	-1.40350714	5.96252097
391	-1.40269411	5.96358742
392	-1.40193992	5.96427411
393	-1.40141521	5.96439634
394	-1.40087541	5.96436879
395	-1.40052561	5.96421465
396	-1.40025053	5.96372403
397	-1.40007348	5.96317669
398	-1.39981641	5.96225940
399	-1.39946671	5.96188886
400	-1.39917676	5.96173479
401	-1.39880053	5.96224972
402	-1.39850443	5.96205120
403	-1.39808219	5.96229490
404	-1.39751333	5.96280614
405	-1.39690175	5.96333824
406	-1.39629331	5.96377001
407	-1.39573343	5.96393637
408	-1.39536107	5.96374495
409	-1.39507604	5.96322219
410	-1.39479639	5.96295850
411	-1.39474204	5.96194064
412	-1.39464772	5.96096685
413	-1.39453304	5.96004653
414	-1.39453724	5.95882175
415	-1.39445023	5.95816676
416	-1.39429325	5.95757737
417	-1.39409616	5.95676764
418	-1.39400618	5.95614065
419	-1.39398062	5.95537579
420	-1.39396474	5.95472903
421	-1.39398452	5.95429075
422	-1.39395300	5.95368633
423	-1.39383532	5.95305357
424	-1.39351779	5.95312531
425	-1.39321212	5.95302157
426	-1.39276757	5.95345246
427	-1.39246239	5.95422214
428	-1.39221249	5.95486111
429	-1.39186435	5.95518612
430	-1.39159282	5.95503919
431	-1.39132760	5.95506162
432	-1.39105520	5.95539962
433	-1.39084685	5.95570467
434	-1.39054024	5.95590986
435	-1.39025869	5.95596188
436	-1.38988073	5.95638852
437	-1.38936381	5.95737724
438	-1.38875915	5.95864988
439	-1.38802990	5.96072365
440	-1.38715869	5.96321185
441	-1.38641931	5.96490454
442	-1.38581329	5.96618080
443	-1.38542169	5.96729582
444	-1.38518228	5.96781740
445	-1.38492579	5.96750641
446	-1.38481099	5.96658337
447	-1.38459654	5.96605148
448	-1.38425260	5.96589772
449	-1.38385070	5.96554929
450	-1.38349377	5.96481430
451	-1.38318127	5.96344769
452	-1.38292347	5.96223718
453	-1.38268173	5.96132798
454	-1.38237778	5.96062021
455	-1.38205078	5.96039578
456	-1.38158397	5.96019460
457	-1.38090268	5.96040513
458	-1.38020329	5.96083893
459	-1.37937457	5.96170456
460	-1.37857675	5.96265946
461	-1.37789658	5.96372043
462	-1.37736129	5.96420016
463	-1.37690918	5.96448532
464	-1.37670999	5.96401141
465	-1.37644792	5.96381380
466	-1.37597796	5.96392583
467	-1.37542001	5.96432518
468	-1.37508877	5.96424425
469	-1.37478403	5.96449638
470	-1.37456601	5.96425717
471	-1.37424624	5.96366829
472	-1.37383189	5.96361633
473	-1.37347525	5.96352523
474	-1.37324799	5.96263501
475	-1.37301832	5.96155644
476	-1.37279342	5.96047626
477	-1.37258074	5.95980743
478	-1.37226668	5.95978187
479	-1.37180416	5.96048657
480	-1.37129146	5.96108427
481	-1.37096013	5.96047318
482	-1.37076502	5.95915920
483	-1.37062254	5.95813353
484	-1.37059786	5.95710172
485	-1.37038050	5.95676178
486	-1.37010185	5.95662855
487	-1.36984345	5.95699093
488	-1.36935621	5.95782248
489	-1.36885481	5.95846141
490	-1.36842941	5.95916551
491	-1.36796859	5.95984008
492	-1.36736423	5.96054198
493	-1.36695107	5.96052504
494	-1.36665103	5.95988031
495	-1.36625828	5.95912703
496	-1.36575160	5.95837514
497	-1.36523449	5.95773452
498	-1.36481534	5.95691043
499	-1.36435145	5.95651718
500	-1.36396593	5.95652556
501	-1.36360250	5.95635874
502	-1.36323237	5.95620633
503	-1.36285981	5.95649373
504	-1.36258850	5.95667053
505	-1.36243040	5.95671251
506	-1.36225806	5.95680298
507	-1.36199143	5.95723498
508	-1.36174096	5.95786044
509	-1.36139997	5.95862354
510	-1.36102522	5.95890380
511	-1.36074317	5.95862382
512	-1.36054688	5.95843158
513	-1.36026866	5.95829384
514	-1.36000446	5.95808498
515	-1.35960067	5.95853440
516	-1.35915786	5.95888787
517	-1.35884770	5.95884495
518	-1.35864762	5.95829186
519	-1.35840020	5.95805128
520	-1.35794313	5.95815754
521	-1.35750822	5.95861529
522	-1.35735920	5.95846037
523	-1.35723745	5.95824092
524	-1.35711751	5.95797212
525	-1.35709273	5.95744574
526	-1.35699215	5.95700001
527	-1.35705057	5.95581672
528	-1.35721605	5.95451909
529	-1.35741185	5.95290351
530	-1.35760780	5.95135862
531	-1.35765564	5.94995082
532	-1.35778589	5.94857956
533	-1.35792824	5.94729684
534	-1.35801477	5.94633197
535	-1.35796725	5.94584153
536	-1.35798616	5.94515283
537	-1.35798139	5.94434020
538	-1.35791170	5.94344185
539	-1.35780129	5.94253375
540	-1.35774769	5.94161121
541	-1.35785393	5.94070059
542	-1.35779778	5.94041235
543	-1.35768292	5.94046973
544	-1.35758909	5.94026594
545	-1.35770734	5.93968680
546	-1.35784386	5.93893383
547	-1.35792080	5.93844066
548	-1.35790966	5.93802880
549	-1.35793935	5.93750020
550	-1.35803141	5.93645578
551	-1.35812348	5.93556733
552	-1.35810202	5.93535028
553	-1.35784218	5.93609032
554	-1.35744253	5.93773246
555	-1.35717748	5.93896700
556	-1.35691355	5.94040509
557	-1.35660735	5.94192532
558	-1.35628360	5.94371423
559	-1.35601418	5.94560242
560	-1.35590113	5.94725082
561	-1.35573029	5.94880720
562	-1.35561982	5.94994226
563	-1.35545801	5.95126039
564	-1.35544114	5.95208475
565	-1.35545638	5.95262976
566	-1.35529485	5.95346525
567	-1.35506791	5.95446007
568	-1.35502620	5.95466970
569	-1.35515342	5.95468451
570	-1.35526384	5.95467663
571	-1.35519231	5.95507226
572	-1.35502937	5.95594216
573	-1.35481056	5.95687962
574	-1.35468942	5.95737223
575	-1.35457052	5.95767074
576	-1.35462274	5.95752260
577	-1.35462945	5.95776079
578	-1.35450637	5.95803119
579	-1.35447835	5.95806291
580	-1.35423176	5.95855404
581	-1.35406045	5.95883852
582	-1.35399408	5.95890386
583	-1.35400363	5.95852301
584	-1.35400110	5.95784103
585	-1.35407429	5.95723669
586	-1.35415396	5.95664059
587	-1.35407936	5.95683630
588	-1.35389355	5.95727748
589	-1.35361668	5.95781193
590	-1.35320337	5.95838276
591	-1.35272728	5.95890157
592	-1.35230036	5.95952335
593	-1.35187420	5.96043529
594	-1.35158994	5.96123771
595	-1.35123198	5.96208344
596	-1.35083724	5.96297886
597	-1.35062849	5.96312700
598	-1.35037850	5.96341998
599	-1.35038414	5.96353348
600	-1.35041654	5.96344871
601	-1.35040006	5.96300583
602	-1.35042452	5.96237973
603	-1.35049095	5.96141380
604	-1.35049224	5.96067065
605	-1.35044627	5.95994093
606	-1.35050501	5.95924309
607	-1.35047461	5.95875632
608	-1.35046903	5.95831631
609	-1.35053149	5.95756315
610	-1.35058907	5.95683485
611	-1.35048379	5.95675696
612	-1.35054516	5.95590477
613	-1.35052263	5.95569030
614	-1.35029424	5.95607540
615	-1.34997908	5.95659846
616	-1.34978358	5.95712299
617	-1.34943729	5.95779846
618	-1.34904036	5.95856973
619	-1.34877494	5.95903344
620	-1.34841186	5.95984569
621	-1.34815761	5.96030412
622	-1.34789320	5.96083657
623	-1.34755023	5.96121895
624	-1.34731204	5.96104781
625	-1.34722909	5.96039176
626	-1.34718644	5.95966666
627	-1.34714831	5.95911366
628	-1.34714606	5.95859082
629	-1.34700502	5.95834931
630	-1.34695763	5.95764995
631	-1.34707395	5.95656674
632	-1.34713281	5.95581282
633	-1.34704793	5.95575454
634	-1.34702270	5.95533871
635	-1.34688560	5.95515740
636	-1.34675605	5.95491654
637	-1.34663460	5.95471465
638	-1.34655582	5.95448816
639	-1.34641214	5.95431902
640	-1.34625948	5.95418271
641	-1.34612183	5.95440720
642	-1.34594141	5.95494236
643	-1.34581214	5.95517658
644	-1.34559738	5.95544471
645	-1.34546283	5.95540880
646	-1.34543248	5.95511745
647	-1.34531395	5.95478946
648	-1.34519933	5.95465555
649	-1.34500199	5.95483531
650	-1.34473312	5.95518443
651	-1.34450616	5.95531490
652	-1.34442100	5.95521577
653	-1.34463134	5.95426686
654	-1.34473410	5.95337497
655	-1.34486636	5.95229600
656	-1.34492030	5.95160198
657	-1.34496997	5.95080239
658	-1.34517864	5.95022425
659	-1.34529316	5.94997424
660	-1.34539588	5.95005749
661	-1.34549092	5.95022640
662	-1.34548634	5.95056161
663	-1.34544111	5.95102463
664	-1.34543427	5.95119942
665	-1.34556162	5.95080685
666	-1.34558614	5.95070621
667	-1.34555408	5.95084167
668	-1.34559528	5.95039256
669	-1.34572182	5.94970199
670	-1.34581494	5.94900111
671	-1.34584685	5.94861483
672	-1.34581008	5.94843145
673	-1.34578180	5.94815580
674	-1.34576033	5.94780036
675	-1.34576263	5.94764168
676	-1.34577465	5.94751317
677	-1.34580712	5.94729655
678	-1.34583067	5.94655728
679	-1.34583921	5.94604425
680	-1.34575815	5.94602260
681	-1.34565999	5.94597344
682	-1.34560313	5.94577291
683	-1.34556714	5.94556839
684	-1.34537368	5.94575654
685	-1.34525880	5.94590964
686	-1.34527455	5.94571557
687	-1.34539173	5.94523960
688	-1.34544021	5.94488515
689	-1.34544771	5.94497509
690	-1.34537560	5.94561006
691	-1.34530017	5.94616295
692	-1.34521096	5.94658895
693	-1.34520647	5.94707936
694	-1.34507299	5.94766503
695	-1.34497159	5.94822149
696	-1.34486904	5.94833168
697	-1.34484178	5.94829150
698	-1.34493399	5.94785850
699	-1.34506947	5.94740695
700	-1.34521253	5.94686983
701	-1.34543147	5.94612947
702	-1.34554887	5.94553476
703	-1.34575634	5.94498299
704	-1.34602633	5.94412231
705	-1.34621008	5.94346906
706	-1.34636959	5.94271170
707	-1.34645940	5.94202129
708	-1.34651999	5.94140556
709	-1.34653071	5.94101559
710	-1.34650587	5.94041720
711	-1.34641993	5.93977760
712	-1.34640140	5.93930262
713	-1.34652640	5.93825848
714	-1.34667016	5.93723461
715	-1.34680959	5.93595223
716	-1.34688186	5.93519699
717	-1.34692636	5.93455818
718	-1.34700887	5.93375716
719	-1.34704655	5.93316876
720	-1.34703572	5.93250710
721	-1.34713923	5.93145209
722	-1.34727740	5.93062183
723	-1.34748838	5.92973622
724	-1.34764724	5.92878077
725	-1.34768624	5.92838274
726	-1.34769717	5.92787785
727	-1.34773813	5.92721623
728	-1.34779540	5.92669134
729	-1.34768489	5.92622356
730	-1.34761248	5.92558049
731	-1.34755488	5.92512967
732	-1.34749824	5.92472926
733	-1.34745312	5.92417695
734	-1.34737617	5.92367033
735	-1.34727021	5.92340111
736	-1.34712213	5.92307111
737	-1.34709202	5.92235877
738	-1.34720113	5.92126799
739	-1.34726659	5.92033704
740	-1.34726042	5.91969426
741	-1.34725535	5.91915510
742	-1.34730460	5.91844049
743	-1.34716669	5.91824958
